"# Channel 1"
"# Trace 1"
Frequency, Formatted Data, Formatted Data
+3.00000000000E+005, -2.00264688241E+001, +0.00000000000E+000
+4.27985000000E+007, -2.09069004133E+001, +0.00000000000E+000
+8.52970000000E+007, -2.12926372735E+001, +0.00000000000E+000
+1.27795500000E+008, -2.15945877842E+001, +0.00000000000E+000
+1.70294000000E+008, -2.18381670051E+001, +0.00000000000E+000
+2.12792500000E+008, -2.20883021560E+001, +0.00000000000E+000
+2.55291000000E+008, -2.23000514319E+001, +0.00000000000E+000
+2.97789500000E+008, -2.24924427819E+001, +0.00000000000E+000
+3.40288000000E+008, -2.26658758890E+001, +0.00000000000E+000
+3.82786500000E+008, -2.28406654272E+001, +0.00000000000E+000
+4.25285000000E+008, -2.29996519286E+001, +0.00000000000E+000
+4.67783500000E+008, -2.31606891235E+001, +0.00000000000E+000
+5.10282000000E+008, -2.33305489833E+001, +0.00000000000E+000
+5.52780500000E+008, -2.34802844933E+001, +0.00000000000E+000
+5.95279000000E+008, -2.36157315133E+001, +0.00000000000E+000
+6.37777500000E+008, -2.37659562275E+001, +0.00000000000E+000
+6.80276000000E+008, -2.39170271525E+001, +0.00000000000E+000
+7.22774500000E+008, -2.40228110061E+001, +0.00000000000E+000
+7.65273000000E+008, -2.41499141674E+001, +0.00000000000E+000
+8.07771500000E+008, -2.42862090067E+001, +0.00000000000E+000
+8.50270000000E+008, -2.44063068176E+001, +0.00000000000E+000
+8.92768500000E+008, -2.45172917590E+001, +0.00000000000E+000
+9.35267000000E+008, -2.46628846082E+001, +0.00000000000E+000
+9.77765500000E+008, -2.47675512097E+001, +0.00000000000E+000
+1.02026400000E+009, -2.48943936162E+001, +0.00000000000E+000
+1.06276250000E+009, -2.49977366619E+001, +0.00000000000E+000
+1.10526100000E+009, -2.51285565868E+001, +0.00000000000E+000
+1.14775950000E+009, -2.52423937941E+001, +0.00000000000E+000
+1.19025800000E+009, -2.53592588710E+001, +0.00000000000E+000
+1.23275650000E+009, -2.54458833823E+001, +0.00000000000E+000
+1.27525500000E+009, -2.55805819216E+001, +0.00000000000E+000
+1.31775350000E+009, -2.56348443727E+001, +0.00000000000E+000
+1.36025200000E+009, -2.57865745443E+001, +0.00000000000E+000
+1.40275050000E+009, -2.58872703005E+001, +0.00000000000E+000
+1.44524900000E+009, -2.59755581904E+001, +0.00000000000E+000
+1.48774750000E+009, -2.60748735438E+001, +0.00000000000E+000
+1.53024600000E+009, -2.61879198907E+001, +0.00000000000E+000
+1.57274450000E+009, -2.62905012177E+001, +0.00000000000E+000
+1.61524300000E+009, -2.63882176056E+001, +0.00000000000E+000
+1.65774150000E+009, -2.64618273071E+001, +0.00000000000E+000
+1.70024000000E+009, -2.65656766813E+001, +0.00000000000E+000
+1.74273850000E+009, -2.66690155093E+001, +0.00000000000E+000
+1.78523700000E+009, -2.67824913545E+001, +0.00000000000E+000
+1.82773550000E+009, -2.68773237710E+001, +0.00000000000E+000
+1.87023400000E+009, -2.69347668955E+001, +0.00000000000E+000
+1.91273250000E+009, -2.70800628396E+001, +0.00000000000E+000
+1.95523100000E+009, -2.71774963321E+001, +0.00000000000E+000
+1.99772950000E+009, -2.72538041954E+001, +0.00000000000E+000
+2.04022800000E+009, -2.73590262317E+001, +0.00000000000E+000
+2.08272650000E+009, -2.74993347134E+001, +0.00000000000E+000
+2.12522500000E+009, -2.75980536312E+001, +0.00000000000E+000
+2.16772350000E+009, -2.76967163704E+001, +0.00000000000E+000
+2.21022200000E+009, -2.77871166746E+001, +0.00000000000E+000
+2.25272050000E+009, -2.79006410751E+001, +0.00000000000E+000
+2.29521900000E+009, -2.80270675545E+001, +0.00000000000E+000
+2.33771750000E+009, -2.80935635067E+001, +0.00000000000E+000
+2.38021600000E+009, -2.81835580207E+001, +0.00000000000E+000
+2.42271450000E+009, -2.83126735433E+001, +0.00000000000E+000
+2.46521300000E+009, -2.84431082214E+001, +0.00000000000E+000
+2.50771150000E+009, -2.85891293716E+001, +0.00000000000E+000
+2.55021000000E+009, -2.87100917446E+001, +0.00000000000E+000
+2.59270850000E+009, -2.88592175481E+001, +0.00000000000E+000
+2.63520700000E+009, -2.90228153357E+001, +0.00000000000E+000
+2.67770550000E+009, -2.91287958040E+001, +0.00000000000E+000
+2.72020400000E+009, -2.92946999301E+001, +0.00000000000E+000
+2.76270250000E+009, -2.93759033286E+001, +0.00000000000E+000
+2.80520100000E+009, -2.94605029003E+001, +0.00000000000E+000
+2.84769950000E+009, -2.95257036905E+001, +0.00000000000E+000
+2.89019800000E+009, -2.95832603483E+001, +0.00000000000E+000
+2.93269650000E+009, -2.96281749118E+001, +0.00000000000E+000
+2.97519500000E+009, -2.96351040046E+001, +0.00000000000E+000
+3.01769350000E+009, -2.96928569952E+001, +0.00000000000E+000
+3.06019200000E+009, -2.97067095482E+001, +0.00000000000E+000
+3.10269050000E+009, -2.97534738349E+001, +0.00000000000E+000
+3.14518900000E+009, -2.97863582159E+001, +0.00000000000E+000
+3.18768750000E+009, -2.97915231135E+001, +0.00000000000E+000
+3.23018600000E+009, -2.99242803564E+001, +0.00000000000E+000
+3.27268450000E+009, -2.98680813215E+001, +0.00000000000E+000
+3.31518300000E+009, -2.98517224353E+001, +0.00000000000E+000
+3.35768150000E+009, -2.98958254287E+001, +0.00000000000E+000
+3.40018000000E+009, -2.99849860784E+001, +0.00000000000E+000
+3.44267850000E+009, -2.99892454423E+001, +0.00000000000E+000
+3.48517700000E+009, -3.00062573195E+001, +0.00000000000E+000
+3.52767550000E+009, -3.00625700460E+001, +0.00000000000E+000
+3.57017400000E+009, -3.01693251826E+001, +0.00000000000E+000
+3.61267250000E+009, -3.02136324123E+001, +0.00000000000E+000
+3.65517100000E+009, -3.02405641425E+001, +0.00000000000E+000
+3.69766950000E+009, -3.03300790149E+001, +0.00000000000E+000
+3.74016800000E+009, -3.04304533876E+001, +0.00000000000E+000
+3.78266650000E+009, -3.04808145246E+001, +0.00000000000E+000
+3.82516500000E+009, -3.04850067276E+001, +0.00000000000E+000
+3.86766350000E+009, -3.05724148105E+001, +0.00000000000E+000
+3.91016200000E+009, -3.06445230801E+001, +0.00000000000E+000
+3.95266050000E+009, -3.07209609654E+001, +0.00000000000E+000
+3.99515900000E+009, -3.07559751361E+001, +0.00000000000E+000
+4.03765750000E+009, -3.08640841362E+001, +0.00000000000E+000
+4.08015600000E+009, -3.09252288262E+001, +0.00000000000E+000
+4.12265450000E+009, -3.10495719073E+001, +0.00000000000E+000
+4.16515300000E+009, -3.10280554571E+001, +0.00000000000E+000
+4.20765150000E+009, -3.11675570386E+001, +0.00000000000E+000
+4.25015000000E+009, -3.12245392764E+001, +0.00000000000E+000
+4.29264850000E+009, -3.12812178403E+001, +0.00000000000E+000
+4.33514700000E+009, -3.13549049797E+001, +0.00000000000E+000
+4.37764550000E+009, -3.13888961529E+001, +0.00000000000E+000
+4.42014400000E+009, -3.14003234808E+001, +0.00000000000E+000
+4.46264250000E+009, -3.15448510888E+001, +0.00000000000E+000
+4.50514100000E+009, -3.15999885377E+001, +0.00000000000E+000
+4.54763950000E+009, -3.16169166291E+001, +0.00000000000E+000
+4.59013800000E+009, -3.16857475820E+001, +0.00000000000E+000
+4.63263650000E+009, -3.17471301903E+001, +0.00000000000E+000
+4.67513500000E+009, -3.18410626480E+001, +0.00000000000E+000
+4.71763350000E+009, -3.19317269986E+001, +0.00000000000E+000
+4.76013200000E+009, -3.19789415055E+001, +0.00000000000E+000
+4.80263050000E+009, -3.20064630681E+001, +0.00000000000E+000
+4.84512900000E+009, -3.21390808550E+001, +0.00000000000E+000
+4.88762750000E+009, -3.22190605908E+001, +0.00000000000E+000
+4.93012600000E+009, -3.22459433865E+001, +0.00000000000E+000
+4.97262450000E+009, -3.23359624155E+001, +0.00000000000E+000
+5.01512300000E+009, -3.24259279085E+001, +0.00000000000E+000
+5.05762150000E+009, -3.25296951920E+001, +0.00000000000E+000
+5.10012000000E+009, -3.26118770684E+001, +0.00000000000E+000
+5.14261850000E+009, -3.26083670509E+001, +0.00000000000E+000
+5.18511700000E+009, -3.26933205060E+001, +0.00000000000E+000
+5.22761550000E+009, -3.28216767126E+001, +0.00000000000E+000
+5.27011400000E+009, -3.28132109407E+001, +0.00000000000E+000
+5.31261250000E+009, -3.28870469362E+001, +0.00000000000E+000
+5.35511100000E+009, -3.29771337856E+001, +0.00000000000E+000
+5.39760950000E+009, -3.30550904855E+001, +0.00000000000E+000
+5.44010800000E+009, -3.31326352408E+001, +0.00000000000E+000
+5.48260650000E+009, -3.32604798513E+001, +0.00000000000E+000
+5.52510500000E+009, -3.32839524386E+001, +0.00000000000E+000
+5.56760350000E+009, -3.33321995148E+001, +0.00000000000E+000
+5.61010200000E+009, -3.35374432723E+001, +0.00000000000E+000
+5.65260050000E+009, -3.36001307382E+001, +0.00000000000E+000
+5.69509900000E+009, -3.36099880806E+001, +0.00000000000E+000
+5.73759750000E+009, -3.37062645956E+001, +0.00000000000E+000
+5.78009600000E+009, -3.37963472461E+001, +0.00000000000E+000
+5.82259450000E+009, -3.38364462422E+001, +0.00000000000E+000
+5.86509300000E+009, -3.39202944348E+001, +0.00000000000E+000
+5.90759150000E+009, -3.39840504534E+001, +0.00000000000E+000
+5.95009000000E+009, -3.41762441397E+001, +0.00000000000E+000
+5.99258850000E+009, -3.42536434371E+001, +0.00000000000E+000
+6.03508700000E+009, -3.42624864364E+001, +0.00000000000E+000
+6.07758550000E+009, -3.43303137482E+001, +0.00000000000E+000
+6.12008400000E+009, -3.43749174605E+001, +0.00000000000E+000
+6.16258250000E+009, -3.44919120734E+001, +0.00000000000E+000
+6.20508100000E+009, -3.45153940668E+001, +0.00000000000E+000
+6.24757950000E+009, -3.44464933662E+001, +0.00000000000E+000
+6.29007800000E+009, -3.46916303714E+001, +0.00000000000E+000
+6.33257650000E+009, -3.47647243799E+001, +0.00000000000E+000
+6.37507500000E+009, -3.46192605414E+001, +0.00000000000E+000
+6.41757350000E+009, -3.47016255730E+001, +0.00000000000E+000
+6.46007200000E+009, -3.49286491439E+001, +0.00000000000E+000
+6.50257050000E+009, -3.49642866735E+001, +0.00000000000E+000
+6.54506900000E+009, -3.50333011628E+001, +0.00000000000E+000
+6.58756750000E+009, -3.50783850976E+001, +0.00000000000E+000
+6.63006600000E+009, -3.51520916194E+001, +0.00000000000E+000
+6.67256450000E+009, -3.52210320207E+001, +0.00000000000E+000
+6.71506300000E+009, -3.52519538169E+001, +0.00000000000E+000
+6.75756150000E+009, -3.52510737606E+001, +0.00000000000E+000
+6.80006000000E+009, -3.53602291150E+001, +0.00000000000E+000
+6.84255850000E+009, -3.53601801699E+001, +0.00000000000E+000
+6.88505700000E+009, -3.53934563083E+001, +0.00000000000E+000
+6.92755550000E+009, -3.54625516025E+001, +0.00000000000E+000
+6.97005400000E+009, -3.55617672976E+001, +0.00000000000E+000
+7.01255250000E+009, -3.56412502079E+001, +0.00000000000E+000
+7.05505100000E+009, -3.58086755961E+001, +0.00000000000E+000
+7.09754950000E+009, -3.57343388930E+001, +0.00000000000E+000
+7.14004800000E+009, -3.57413530910E+001, +0.00000000000E+000
+7.18254650000E+009, -3.59521241790E+001, +0.00000000000E+000
+7.22504500000E+009, -3.59673930089E+001, +0.00000000000E+000
+7.26754350000E+009, -3.59238729396E+001, +0.00000000000E+000
+7.31004200000E+009, -3.60224935551E+001, +0.00000000000E+000
+7.35254050000E+009, -3.61241736553E+001, +0.00000000000E+000
+7.39503900000E+009, -3.62124926591E+001, +0.00000000000E+000
+7.43753750000E+009, -3.61944350750E+001, +0.00000000000E+000
+7.48003600000E+009, -3.63464146125E+001, +0.00000000000E+000
+7.52253450000E+009, -3.64639888077E+001, +0.00000000000E+000
+7.56503300000E+009, -3.65357916935E+001, +0.00000000000E+000
+7.60753150000E+009, -3.66881463254E+001, +0.00000000000E+000
+7.65003000000E+009, -3.68278419491E+001, +0.00000000000E+000
+7.69252850000E+009, -3.67925785262E+001, +0.00000000000E+000
+7.73502700000E+009, -3.69018445753E+001, +0.00000000000E+000
+7.77752550000E+009, -3.71225445301E+001, +0.00000000000E+000
+7.82002400000E+009, -3.71055743651E+001, +0.00000000000E+000
+7.86252250000E+009, -3.68691019574E+001, +0.00000000000E+000
+7.90502100000E+009, -3.71679476004E+001, +0.00000000000E+000
+7.94751950000E+009, -3.71689651530E+001, +0.00000000000E+000
+7.99001800000E+009, -3.71776097346E+001, +0.00000000000E+000
+8.03251650000E+009, -3.73509752655E+001, +0.00000000000E+000
+8.07501500000E+009, -3.73334909688E+001, +0.00000000000E+000
+8.11751350000E+009, -3.77677118175E+001, +0.00000000000E+000
+8.16001200000E+009, -3.77065107695E+001, +0.00000000000E+000
+8.20251050000E+009, -3.76691017965E+001, +0.00000000000E+000
+8.24500900000E+009, -3.77907530900E+001, +0.00000000000E+000
+8.28750750000E+009, -3.81116204637E+001, +0.00000000000E+000
+8.33000600000E+009, -3.78816661997E+001, +0.00000000000E+000
+8.37250450000E+009, -3.76676533951E+001, +0.00000000000E+000
+8.41500300000E+009, -3.80473965962E+001, +0.00000000000E+000
+8.45750150000E+009, -3.80864528326E+001, +0.00000000000E+000
+8.50000000000E+009, -3.78334616816E+001, +0.00000000000E+000
